,Flux_x(LVLH),Flux_y(LVLH),Flux_z(LVLH),shadow function,SUN_pos_i(X)[m],SUN_pos_i(Y)[m],SUN_pos_i(Z)[m],sat_position_i(X)[m],sat_position_i(Y)[m],sat_position_i(Z)[m],sat_velocity_i(X)[m/s],sat_velocity_i(Y)[m/s],sat_velocity_i(Z)[m/s]
0,-0.8518835435,-0.5223102809,-0.03855384393,1,-5840000000,139000000000,60400000000,7406000,0,0,0,0.5735768745,0.8191517375
1,-0.8519213032,-0.5223103024,-0.03770996092,1,-5840000000,139000000000,60400000000,7405996.366,4207.929312,6009.539017,-0.0009905887894,0.5735765931,0.8191513356
2,-0.8519582271,-0.5223103239,-0.03686604088,1,-5840000000,139000000000,60400000000,7405985.465,8415.854494,12019.07214,-0.001981176606,0.5735757489,0.8191501298
3,-0.8519943149,-0.5223103455,-0.03602208464,1,-5840000000,139000000000,60400000000,7405967.297,12623.77142,18028.59346,-0.00297176248,0.5735743418,0.8191481204
4,-0.8520295667,-0.522310367,-0.03517809303,1,-5840000000,139000000000,60400000000,7405941.862,16831.67596,24038.0971,-0.003962345437,0.5735723719,0.819145307
5,-0.8520639824,-0.5223103885,-0.03433406688,1,-5840000000,139000000000,60400000000,7405909.16,21039.56398,30047.57715,-0.004952924506,0.5735698391,0.8191416899
6,-0.852097562,-0.5223104101,-0.03349000703,1,-5840000000,139000000000,60400000000,7405869.19,25247.43135,36057.02771,-0.005943498715,0.5735667436,0.819137269
7,-0.8521303055,-0.5223104316,-0.03264591428,1,-5840000000,139000000000,60400000000,7405821.953,29455.27395,42066.44289,-0.006934067091,0.5735630852,0.8191320443
8,-0.8521622129,-0.5223104531,-0.03180178948,1,-5840000000,139000000000,60400000000,7405767.449,33663.08765,48075.81679,-0.007924628664,0.573558864,0.8191260158
9,-0.852193284,-0.5223104746,-0.03095763346,1,-5840000000,139000000000,60400000000,7405705.678,37870.86831,54085.14352,-0.008915182461,0.57355408,0.8191191835
10,-0.8522235189,-0.5223104962,-0.03011344703,1,-5840000000,139000000000,60400000000,7405636.64,42078.61181,60094.41718,-0.009905727509,0.5735487331,0.8191115475
11,-0.8522529176,-0.5223105177,-0.02926923103,1,-5840000000,139000000000,60400000000,7405560.335,46286.31403,66103.63186,-0.01089626284,0.5735428235,0.8191031077
12,-0.8522814799,-0.5223105393,-0.02842498629,1,-5840000000,139000000000,60400000000,7405476.764,50493.97082,72112.78169,-0.01188678747,0.573536351,0.8190938642
13,-0.852309206,-0.5223105608,-0.02758071364,1,-5840000000,139000000000,60400000000,7405385.926,54701.57806,78121.86075,-0.01287730044,0.5735293158,0.8190838168
14,-0.8523360958,-0.5223105824,-0.0267364139,1,-5840000000,139000000000,60400000000,7405287.821,58909.13163,84130.86315,-0.01386780078,0.5735217178,0.8190729658
15,-0.8523621491,-0.522310604,-0.0258920879,1,-5840000000,139000000000,60400000000,7405182.449,63116.6274,90139.78299,-0.01485828751,0.573513557,0.819061311
16,-0.8523873661,-0.5223106255,-0.02504773648,1,-5840000000,139000000000,60400000000,7405069.811,67324.06122,96148.61439,-0.01584875965,0.5735048335,0.8190488525
17,-0.8524117467,-0.522310647,-0.02420336045,1,-5840000000,139000000000,60400000000,7404949.907,71531.42899,102157.3514,-0.01683921626,0.5734955472,0.8190355903
18,-0.8524352908,-0.5223106686,-0.02335896065,1,-5840000000,139000000000,60400000000,7404822.736,75738.72656,108165.9882,-0.01782965633,0.5734856981,0.8190215244
19,-0.8524579985,-0.5223106901,-0.02251453791,1,-5840000000,139000000000,60400000000,7404688.299,79945.94982,114174.5189,-0.0188200789,0.5734752863,0.8190066548
20,-0.8524798696,-0.5223107117,-0.02167009306,1,-5840000000,139000000000,60400000000,7404546.597,84153.09462,120182.9375,-0.01981048302,0.5734643117,0.8189909816
21,-0.8525009043,-0.5223107332,-0.02082562692,1,-5840000000,139000000000,60400000000,7404397.628,88360.15685,126191.2382,-0.02080086768,0.5734527744,0.8189745047
22,-0.8525211024,-0.5223107548,-0.01998114032,1,-5840000000,139000000000,60400000000,7404241.394,92567.13237,132199.4151,-0.02179123195,0.5734406745,0.8189572242
23,-0.852540464,-0.5223107763,-0.01913663409,1,-5840000000,139000000000,60400000000,7404077.894,96774.01707,138207.4623,-0.02278157482,0.5734280118,0.8189391401
24,-0.852558989,-0.5223107979,-0.01829210906,1,-5840000000,139000000000,60400000000,7403907.129,100980.8068,144215.3738,-0.02377189535,0.5734147864,0.8189202524
25,-0.8525766775,-0.5223108194,-0.01744756607,1,-5840000000,139000000000,60400000000,7403729.099,105187.4974,150223.1438,-0.02476219254,0.5734009984,0.818900561
26,-0.8525935293,-0.522310841,-0.01660300593,1,-5840000000,139000000000,60400000000,7403543.804,109394.0849,156230.7664,-0.02575246543,0.5733866477,0.8188800662
27,-0.8526095445,-0.5223108625,-0.01575842948,1,-5840000000,139000000000,60400000000,7403351.244,113600.5649,162238.2357,-0.02674271306,0.5733717344,0.8188587677
28,-0.8526247231,-0.522310884,-0.01491383754,1,-5840000000,139000000000,60400000000,7403151.419,117806.9335,168245.5458,-0.02773293444,0.5733562584,0.8188366658
29,-0.852639065,-0.5223109055,-0.01406923094,1,-5840000000,139000000000,60400000000,7402944.33,122013.1866,174252.6908,-0.02872312862,0.5733402199,0.8188137603
30,-0.8526525702,-0.5223109272,-0.01322461052,1,-5840000000,139000000000,60400000000,7402729.976,126219.3198,180259.6649,-0.0297132946,0.5733236186,0.8187900515
31,-0.8526652388,-0.5223109487,-0.0123799771,1,-5840000000,139000000000,60400000000,7402508.359,130425.3293,186266.462,-0.03070343143,0.5733064549,0.8187655391
32,-0.8526770707,-0.5223109703,-0.01153533151,1,-5840000000,139000000000,60400000000,7402279.477,134631.2107,192273.0764,-0.03169353813,0.5732887285,0.8187402234
33,-0.8526880659,-0.5223109918,-0.01069067458,1,-5840000000,139000000000,60400000000,7402043.332,138836.96,198279.502,-0.03268361374,0.5732704397,0.8187141042
34,-0.8526982244,-0.5223110133,-0.009846007138,1,-5840000000,139000000000,60400000000,7401799.924,143042.5731,204285.7332,-0.03367365726,0.5732515883,0.8186871816
35,-0.8527075462,-0.5223110349,-0.009001330008,1,-5840000000,139000000000,60400000000,7401549.253,147248.0459,210291.7638,-0.03466366776,0.5732321743,0.8186594557
36,-0.8527160312,-0.5223110565,-0.008156644026,1,-5840000000,139000000000,60400000000,7401291.318,151453.3741,216297.5882,-0.03565364423,0.5732121979,0.8186309265
37,-0.8527236795,-0.522311078,-0.007311950026,1,-5840000000,139000000000,60400000000,7401026.121,155658.5537,222303.2002,-0.03664358571,0.5731916591,0.8186015939
38,-0.852730491,-0.5223110996,-0.006467248818,1,-5840000000,139000000000,60400000000,7400753.662,159863.5806,228308.5942,-0.03763349125,0.5731705577,0.8185714582
39,-0.8527364658,-0.5223111211,-0.005622541251,1,-5840000000,139000000000,60400000000,7400473.941,164068.4506,234313.7641,-0.03862335985,0.5731488939,0.8185405192
40,-0.8527416038,-0.5223111427,-0.004777828132,1,-5840000000,139000000000,60400000000,7400186.957,168273.1597,240318.704,-0.03961319055,0.5731266677,0.8185087769
41,-0.8527459051,-0.5223111642,-0.003933110309,1,-5840000000,139000000000,60400000000,7399892.712,172477.7036,246323.4082,-0.04060298239,0.5731038792,0.8184762315
42,-0.8527493695,-0.5223111858,-0.003088388611,1,-5840000000,139000000000,60400000000,7399591.206,176682.0782,252327.8707,-0.04159273438,0.5730805282,0.8184428829
43,-0.8527519972,-0.5223112074,-0.002243663858,1,-5840000000,139000000000,60400000000,7399282.439,180886.2795,258332.0855,-0.04258244555,0.5730566149,0.8184087313
44,-0.8527537882,-0.5223112288,-0.00139893688,1,-5840000000,139000000000,60400000000,7398966.412,185090.3033,264336.0469,-0.04357211495,0.5730321393,0.8183737765
45,-0.8527547424,-0.5223112504,-0.000554208515,1,-5840000000,139000000000,60400000000,7398643.123,189294.1454,270339.7488,-0.04456174158,0.5730071014,0.8183380187
46,-0.8527548597,-0.522311272,0.0002905204329,1,-5840000000,139000000000,60400000000,7398312.575,193497.8019,276343.1855,-0.04555132449,0.5729815012,0.818301458
47,-0.8527541403,-0.5223112935,0.001135249107,1,-5840000000,139000000000,60400000000,7397974.767,197701.2684,282346.3511,-0.0465408627,0.5729553388,0.8182640942
48,-0.8527525841,-0.5223113151,0.001979976679,1,-5840000000,139000000000,60400000000,7397629.7,201904.5409,288349.2395,-0.04753035524,0.5729286141,0.8182259275
49,-0.8527501912,-0.5223113366,0.002824702352,1,-5840000000,139000000000,60400000000,7397277.374,206107.6154,294351.8451,-0.04851980114,0.5729013273,0.8181869579
50,-0.8527469614,-0.5223113582,0.003669425255,1,-5840000000,139000000000,60400000000,7396917.789,210310.4875,300354.1618,-0.04950919943,0.5728734782,0.8181471855
51,-0.8527428949,-0.5223113797,0.004514144582,1,-5840000000,139000000000,60400000000,7396550.946,214513.1533,306356.1837,-0.05049854914,0.5728450671,0.8181066102
52,-0.8527379916,-0.5223114013,0.005358859519,1,-5840000000,139000000000,60400000000,7396176.845,218715.6087,312357.9051,-0.05148784931,0.5728160938,0.8180652321
53,-0.8527322516,-0.5223114228,0.006203569194,1,-5840000000,139000000000,60400000000,7395795.486,222917.8493,318359.3199,-0.05247709894,0.5727865585,0.8180230513
54,-0.8527256748,-0.5223114444,0.007048272825,1,-5840000000,139000000000,60400000000,7395406.87,227119.8713,324360.4224,-0.05346629707,0.5727564611,0.8179800678
55,-0.8527182612,-0.522311466,0.007892969551,1,-5840000000,139000000000,60400000000,7395010.997,231321.6704,330361.2065,-0.05445544274,0.5727258016,0.8179362817
56,-0.852710011,-0.5223114875,0.008737658561,1,-5840000000,139000000000,60400000000,7394607.867,235523.2425,336361.6665,-0.05544453499,0.5726945802,0.8178916929
57,-0.8527009239,-0.522311509,0.00958233901,1,-5840000000,139000000000,60400000000,7394197.482,239724.5835,342361.7964,-0.05643357282,0.5726627968,0.8178463016
58,-0.8526910001,-0.5223115306,0.01042701008,1,-5840000000,139000000000,60400000000,7393779.84,243925.6892,348361.5904,-0.05742255529,0.5726304514,0.8178001078
59,-0.8526802397,-0.5223115522,0.01127167094,1,-5840000000,139000000000,60400000000,7393354.944,248126.5556,354361.0426,-0.05841148139,0.5725975442,0.8177531114
60,-0.8526686425,-0.5223115737,0.01211632076,1,-5840000000,139000000000,60400000000,7392922.793,252327.1785,360360.147,-0.05940035019,0.5725640751,0.8177053126
61,-0.8526562086,-0.5223115952,0.01296095872,1,-5840000000,139000000000,60400000000,7392483.387,256527.5538,366358.8978,-0.06038916069,0.5725300442,0.8176567115
62,-0.8526429381,-0.5223116167,0.01380558398,1,-5840000000,139000000000,60400000000,7392036.727,260727.6774,372357.2891,-0.06137791194,0.5724954515,0.8176073079
63,-0.8526288308,-0.5223116383,0.01465019572,1,-5840000000,139000000000,60400000000,7391582.814,264927.5452,378355.3151,-0.06236660296,0.5724602969,0.8175571022
64,-0.8526138869,-0.5223116598,0.01549479309,1,-5840000000,139000000000,60400000000,7391121.648,269127.153,384352.9697,-0.06335523278,0.5724245807,0.8175060941
65,-0.8525981064,-0.5223116814,0.01633937529,1,-5840000000,139000000000,60400000000,7390653.229,273326.4967,390350.2473,-0.06434380044,0.5723883027,0.8174542839
66,-0.8525814892,-0.5223117029,0.01718394148,1,-5840000000,139000000000,60400000000,7390177.557,277525.5722,396347.1417,-0.06533230495,0.5723514631,0.8174016715
67,-0.8525640354,-0.5223117245,0.01802849083,1,-5840000000,139000000000,60400000000,7389694.634,281724.3754,402343.6473,-0.06632074536,0.5723140618,0.8173482571
68,-0.8525457451,-0.522311746,0.01887302251,1,-5840000000,139000000000,60400000000,7389204.46,285922.9021,408339.7581,-0.0673091207,0.572276099,0.8172940406
69,-0.8525266181,-0.5223117677,0.01971753568,1,-5840000000,139000000000,60400000000,7388707.035,290121.1482,414335.4681,-0.06829742997,0.5722375745,0.8172390222
70,-0.8525066546,-0.5223117891,0.02056202953,1,-5840000000,139000000000,60400000000,7388202.36,294319.1097,420330.7716,-0.06928567223,0.5721984887,0.8171832017
71,-0.8524858546,-0.5223118106,0.02140650324,1,-5840000000,139000000000,60400000000,7387690.435,298516.7824,426325.6627,-0.07027384651,0.5721588413,0.8171265794
72,-0.852464218,-0.5223118322,0.02225095594,1,-5840000000,139000000000,60400000000,7387171.261,302714.1621,432320.1353,-0.07126195183,0.5721186324,0.8170691554
73,-0.8524417448,-0.5223118539,0.02309538684,1,-5840000000,139000000000,60400000000,7386644.838,306911.2448,438314.1838,-0.07224998722,0.5720778621,0.8170109296
74,-0.8524184354,-0.5223118753,0.02393979512,1,-5840000000,139000000000,60400000000,7386111.166,311108.0264,444307.8022,-0.07323795171,0.5720365306,0.8169519019
75,-0.8523942893,-0.5223118969,0.0247841799,1,-5840000000,139000000000,60400000000,7385570.247,315304.5026,450300.9846,-0.07422584434,0.5719946376,0.8168920728
76,-0.852369307,-0.5223119184,0.0256285404,1,-5840000000,139000000000,60400000000,7385022.081,319500.6695,456293.7251,-0.07521366414,0.5719521835,0.8168314419
77,-0.8523434881,-0.52231194,0.02647287576,1,-5840000000,139000000000,60400000000,7384466.668,323696.5228,462286.0179,-0.07620141012,0.571909168,0.8167700096
78,-0.8523168329,-0.5223119615,0.02731718516,1,-5840000000,139000000000,60400000000,7383904.009,327892.0585,468277.857,-0.07718908135,0.5718655914,0.8167077758
79,-0.8522893413,-0.5223119831,0.0281614678,1,-5840000000,139000000000,60400000000,7383334.104,332087.2725,474269.2367,-0.07817667681,0.5718214536,0.8166447407
80,-0.8522610135,-0.5223120046,0.02900572282,1,-5840000000,139000000000,60400000000,7382756.954,336282.1606,480260.1509,-0.07916419559,0.5717767547,0.8165809041
81,-0.8522318493,-0.5223120261,0.02984994939,1,-5840000000,139000000000,60400000000,7382172.56,340476.7187,486250.5939,-0.08015163666,0.5717314948,0.8165162662
82,-0.8522018489,-0.5223120476,0.0306941467,1,-5840000000,139000000000,60400000000,7381580.922,344670.9427,492240.5598,-0.08113899908,0.5716856738,0.8164508272
83,-0.8521710121,-0.5223120692,0.0315383139,1,-5840000000,139000000000,60400000000,7380982.041,348864.8285,498230.0426,-0.0821262819,0.5716392918,0.816384587
84,-0.8521393392,-0.5223120908,0.03238245019,1,-5840000000,139000000000,60400000000,7380375.917,353058.372,504219.0366,-0.08311348412,0.5715923489,0.8163175457
85,-0.8521068302,-0.5223121122,0.03322655472,1,-5840000000,139000000000,60400000000,7379762.551,357251.569,510207.5358,-0.08410060479,0.5715448452,0.8162497034
86,-0.8520734849,-0.5223121338,0.03407062667,1,-5840000000,139000000000,60400000000,7379141.943,361444.4155,516195.5343,-0.08508764293,0.5714967805,0.8161810601
87,-0.8520393035,-0.5223121554,0.0349146652,1,-5840000000,139000000000,60400000000,7378514.095,365636.9073,522183.0263,-0.08607459758,0.5714481551,0.816111616
88,-0.8520042862,-0.5223121768,0.0357586695,1,-5840000000,139000000000,60400000000,7377879.006,369829.0403,528170.0059,-0.08706146776,0.571398969,0.8160413709
89,-0.8519684326,-0.5223121984,0.03660263873,1,-5840000000,139000000000,60400000000,7377236.677,374020.8104,534156.4672,-0.08804825252,0.5713492221,0.8159703252
90,-0.8519317432,-0.5223122199,0.03744657206,1,-5840000000,139000000000,60400000000,7376587.11,378212.2135,540142.4044,-0.08903495088,0.5712989147,0.8158984787
91,-0.8518942177,-0.5223122414,0.03829046868,1,-5840000000,139000000000,60400000000,7375930.304,382403.2455,546127.8115,-0.09002156187,0.5712480466,0.8158258317
92,-0.8518558563,-0.522312263,0.03913432774,1,-5840000000,139000000000,60400000000,7375266.26,386593.9022,552112.6828,-0.09100808453,0.571196618,0.8157523841
93,-0.851816659,-0.5223122845,0.03997814842,1,-5840000000,139000000000,60400000000,7374594.98,390784.1796,558097.0123,-0.09199451787,0.5711446288,0.8156781361
94,-0.8517766258,-0.522312306,0.04082192989,1,-5840000000,139000000000,60400000000,7373916.462,394974.0735,564080.7941,-0.09298086096,0.5710920793,0.8156030876
95,-0.8517357568,-0.5223123276,0.04166567133,1,-5840000000,139000000000,60400000000,7373230.709,399163.5798,570064.0224,-0.09396711279,0.5710389693,0.8155272388
96,-0.8516940521,-0.5223123491,0.04250937191,1,-5840000000,139000000000,60400000000,7372537.721,403352.6945,576046.6914,-0.09495327243,0.570985299,0.8154505898
97,-0.8516515115,-0.5223123707,0.04335303079,1,-5840000000,139000000000,60400000000,7371837.499,407541.4134,582028.7951,-0.0959393389,0.5709310684,0.8153731406
98,-0.8516081353,-0.5223123921,0.04419664714,1,-5840000000,139000000000,60400000000,7371130.043,411729.7323,588010.3276,-0.09692531122,0.5708762776,0.8152948912
99,-0.8515639234,-0.5223124136,0.04504022016,1,-5840000000,139000000000,60400000000,7370415.354,415917.6472,593991.2832,-0.09791118842,0.5708209266,0.8152158419
100,-0.8515188759,-0.5223124352,0.04588374901,1,-5840000000,139000000000,60400000000,7369693.432,420105.1541,599971.6559,-0.09889696955,0.5707650154,0.8151359927
101,-0.8514729928,-0.5223124567,0.04672723284,1,-5840000000,139000000000,60400000000,7368964.279,424292.2486,605951.4399,-0.09988265365,0.5707085443,0.8150553435
102,-0.8514262742,-0.5223124783,0.04757067085,1,-5840000000,139000000000,60400000000,7368227.895,428478.9269,611930.6292,-0.1008682397,0.570651513,0.8149738946
103,-0.8513787201,-0.5223124998,0.04841406221,1,-5840000000,139000000000,60400000000,7367484.28,432665.1846,617909.2182,-0.1018537268,0.5705939218,0.814891646
104,-0.8513303306,-0.5223125213,0.04925740607,1,-5840000000,139000000000,60400000000,7366733.437,436851.0179,623887.2007,-0.102839114,0.5705357707,0.8148085977
105,-0.8512811057,-0.5223125429,0.05010070163,1,-5840000000,139000000000,60400000000,7365975.364,441036.4224,629864.5711,-0.1038244002,0.5704770598,0.81472475
106,-0.8512310454,-0.5223125643,0.05094394803,1,-5840000000,139000000000,60400000000,7365210.064,445221.3942,635841.3234,-0.1048095846,0.5704177891,0.8146401027
107,-0.8511801499,-0.5223125858,0.05178714448,1,-5840000000,139000000000,60400000000,7364437.536,449405.9291,641817.4518,-0.1057946661,0.5703579586,0.814554656
108,-0.8511284191,-0.5223126073,0.05263029013,1,-5840000000,139000000000,60400000000,7363657.782,453590.023,647792.9504,-0.1067796438,0.5702975685,0.8144684101
109,-0.8510758531,-0.5223126289,0.05347338415,1,-5840000000,139000000000,60400000000,7362870.802,457773.6718,653767.8133,-0.1077645167,0.5702366187,0.814381365
110,-0.851022452,-0.5223126504,0.05431642573,1,-5840000000,139000000000,60400000000,7362076.597,461956.8714,659742.0347,-0.1087492839,0.5701751094,0.8142935207
111,-0.8509682158,-0.5223126719,0.05515941404,1,-5840000000,139000000000,60400000000,7361275.168,466139.6178,665715.6088,-0.1097339444,0.5701130406,0.8142048774
112,-0.8509131446,-0.5223126934,0.05600234823,1,-5840000000,139000000000,60400000000,7360466.516,470321.9067,671688.5296,-0.1107184971,0.5700504124,0.8141154351
113,-0.8508572384,-0.5223127149,0.05684522749,1,-5840000000,139000000000,60400000000,7359650.641,474503.7341,677660.7912,-0.1117029413,0.5699872248,0.814025194
114,-0.8508004973,-0.5223127364,0.05768805099,1,-5840000000,139000000000,60400000000,7358827.545,478685.0959,683632.3879,-0.1126872758,0.5699234779,0.8139341541
115,-0.8507429213,-0.5223127579,0.0585308179,1,-5840000000,139000000000,60400000000,7357997.227,482865.9879,689603.3138,-0.1136714998,0.5698591717,0.8138423155
116,-0.8506845104,-0.5223127794,0.05937352741,1,-5840000000,139000000000,60400000000,7357159.689,487046.4062,695573.563,-0.1146556122,0.5697943064,0.8137496783
117,-0.8506252649,-0.5223128009,0.06021617868,1,-5840000000,139000000000,60400000000,7356314.932,491226.3465,701543.1297,-0.1156396121,0.5697288819,0.8136562426
118,-0.8505651846,-0.5223128223,0.06105877087,1,-5840000000,139000000000,60400000000,7355462.957,495405.8048,707512.008,-0.1166234985,0.5696628985,0.8135620085
119,-0.8505042697,-0.522312844,0.06190130319,1,-5840000000,139000000000,60400000000,7354603.763,499584.777,713480.192,-0.1176072705,0.5695963559,0.8134669762
120,-0.8504425202,-0.5223128654,0.06274377476,1,-5840000000,139000000000,60400000000,7353737.353,503763.2589,719447.6759,-0.1185909271,0.5695292545,0.8133711455
121,-0.8503799362,-0.5223128869,0.06358618481,1,-5840000000,139000000000,60400000000,7352863.727,507941.2466,725414.4538,-0.1195744673,0.5694615942,0.8132745167
