,Flux_x(LVLH),Flux_y(LVLH),Flux_z(LVLH),shadow function,SUN_pos_i(X)[m],SUN_pos_i(Y)[m],SUN_pos_i(Z)[m],sat_position_i(X)[m],sat_position_i(Y)[m],sat_position_i(Z)[m],sat_velocity_i(X)[m/s],sat_velocity_i(Y)[m/s],sat_velocity_i(Z)[m/s]
0,0.5771675981,0.8165626376,0.01015000434,1,-150000000000,-1530000000,-664000000,-1.36E-09,-7406000,0,0.5735768745,-1.05E-16,0.8191517375
1,0.5771828457,0.8165587668,0.00957825803,1,-150000000000,-1530000000,-665000000,4207.929312,-7405996.366,6009.539017,0.5735765931,0.0009905887897,0.8191513355
2,0.5771920832,0.8165587437,0.009006502609,1,-150000000000,-1530000000,-665000000,8415.854495,-7405985.465,12019.07214,0.5735757489,0.001981176607,0.8191501298
3,0.5772007543,0.8165587207,0.008434738334,1,-150000000000,-1530000000,-665000000,12623.77142,-7405967.297,18028.59346,0.5735743418,0.002971762481,0.8191481204
4,0.5772088592,0.8165586976,0.007862965766,1,-150000000000,-1530000000,-665000000,16831.67596,-7405941.862,24038.0971,0.573572372,0.003962345439,0.819145307
5,0.5772163976,0.8165586746,0.007291185467,1,-150000000000,-1530000000,-665000000,21039.56398,-7405909.16,30047.57715,0.5735698392,0.004952924509,0.8191416899
6,0.5772233695,0.8165586515,0.006719397997,1,-150000000000,-1530000000,-665000000,25247.43135,-7405869.19,36057.02771,0.5735667437,0.005943498718,0.819137269
7,0.5772297751,0.8165586285,0.006147603916,1,-150000000000,-1530000000,-665000000,29455.27396,-7405821.953,42066.44289,0.5735630853,0.006934067096,0.8191320443
8,0.5772356143,0.8165586054,0.005575803788,1,-150000000000,-1530000000,-665000000,33663.08765,-7405767.449,48075.81679,0.5735588641,0.007924628669,0.8191260158
9,0.577240887,0.8165585823,0.005003998172,1,-150000000000,-1530000000,-665000000,37870.86832,-7405705.678,54085.14352,0.5735540801,0.008915182464,0.8191191835
10,0.5772455933,0.8165585593,0.004432187628,1,-150000000000,-1530000000,-665000000,42078.61183,-7405636.64,60094.41718,0.5735487333,0.009905727513,0.8191115474
11,0.5772497332,0.8165585363,0.003860372721,1,-150000000000,-1530000000,-665000000,46286.31404,-7405560.335,66103.63187,0.5735428236,0.01089626284,0.8191031076
12,0.5772533067,0.8165585131,0.003288554009,1,-150000000000,-1530000000,-665000000,50493.97084,-7405476.764,72112.78169,0.5735363513,0.01188678748,0.819093864
13,0.5772563136,0.8165584901,0.002716732055,1,-150000000000,-1530000000,-665000000,54701.57808,-7405385.926,78121.86075,0.573529316,0.01287730045,0.8190838167
14,0.5772587541,0.8165584671,0.002144907417,1,-150000000000,-1530000000,-665000000,58909.13165,-7405287.82,84130.86315,0.573521718,0.01386780079,0.8190729657
15,0.5772606283,0.816558444,0.001573080658,1,-150000000000,-1530000000,-665000000,63116.62742,-7405182.449,90139.783,0.5735135573,0.01485828752,0.8190613108
16,0.577261936,0.8165584209,0.001001252341,1,-150000000000,-1530000000,-665000000,67324.06125,-7405069.811,96148.6144,0.5735048337,0.01584875966,0.8190488523
17,0.5772626772,0.8165583979,0.0004294230243,1,-150000000000,-1530000000,-665000000,71531.42902,-7404949.907,102157.3514,0.5734955474,0.01683921626,0.8190355901
18,0.577262852,0.8165583748,-0.0001424067309,1,-150000000000,-1530000000,-665000000,75738.7266,-7404822.736,108165.9883,0.5734856984,0.01782965633,0.8190215242
19,0.5772624603,0.8165583518,-0.0007142363623,1,-150000000000,-1530000000,-665000000,79945.94986,-7404688.299,114174.5189,0.5734752866,0.01882007891,0.8190066546
20,0.5772615022,0.8165583287,-0.001286065307,1,-150000000000,-1530000000,-665000000,84153.09467,-7404546.597,120182.9375,0.5734643121,0.01981048302,0.8189909813
21,0.5772599776,0.8165583056,-0.001857893008,1,-150000000000,-1530000000,-665000000,88360.1569,-7404397.628,126191.2382,0.5734527748,0.02080086768,0.8189745045
22,0.5772578865,0.8165582826,-0.002429718901,1,-150000000000,-1530000000,-665000000,92567.13243,-7404241.394,132199.4151,0.5734406748,0.02179123195,0.8189572239
23,0.577255229,0.8165582596,-0.003001542426,1,-150000000000,-1530000000,-665000000,96774.01712,-7404077.894,138207.4623,0.5734280121,0.02278157482,0.8189391398
24,0.5772520051,0.8165582365,-0.003573363029,1,-150000000000,-1530000000,-665000000,100980.8069,-7403907.129,144215.3738,0.5734147868,0.02377189535,0.8189202521
25,0.5772482149,0.8165582134,-0.004145180128,1,-150000000000,-1530000000,-665000000,105187.4975,-7403729.099,150223.1438,0.5734009989,0.02476219254,0.8189005607
26,0.5772438581,0.8165581903,-0.004716993178,1,-150000000000,-1530000000,-665000000,109394.0849,-7403543.804,156230.7664,0.5733866482,0.02575246544,0.8188800658
27,0.5772389349,0.8165581673,-0.005288801622,1,-150000000000,-1530000000,-665000000,113600.565,-7403351.244,162238.2357,0.5733717349,0.02674271306,0.8188587674
28,0.5772334452,0.8165581442,-0.00586060489,1,-150000000000,-1530000000,-665000000,117806.9336,-7403151.419,168245.5458,0.5733562589,0.02773293445,0.8188366655
29,0.5772273891,0.8165581212,-0.006432402422,1,-150000000000,-1530000000,-665000000,122013.1866,-7402944.33,174252.6908,0.5733402203,0.02872312862,0.81881376
30,0.5772207667,0.8165580981,-0.007004193663,1,-150000000000,-1530000000,-665000000,126219.3199,-7402729.976,180259.6649,0.5733236192,0.0297132946,0.8187900511
31,0.5772135779,0.816558075,-0.007575978053,1,-150000000000,-1530000000,-665000000,130425.3294,-7402508.359,186266.462,0.5733064555,0.03070343144,0.8187655387
32,0.5772058226,0.816558052,-0.008147755012,1,-150000000000,-1530000000,-665000000,134631.2108,-7402279.477,192273.0764,0.5732887291,0.03169353814,0.818740223
33,0.5771975009,0.8165580289,-0.008719523991,1,-150000000000,-1530000000,-665000000,138836.9601,-7402043.332,198279.5021,0.5732704403,0.03268361373,0.8187141038
34,0.5771886129,0.8165580059,-0.009291284448,1,-150000000000,-1530000000,-665000000,143042.5733,-7401799.924,204285.7332,0.5732515889,0.03367365726,0.8186871812
35,0.5771791585,0.8165579828,-0.009863035786,1,-150000000000,-1530000000,-665000000,147248.046,-7401549.253,210291.7639,0.573232175,0.03466366775,0.8186594553
36,0.5771691376,0.8165579598,-0.01043477746,1,-150000000000,-1530000000,-665000000,151453.3742,-7401291.318,216297.5882,0.5732121985,0.03565364423,0.8186309261
37,0.5771585505,0.8165579367,-0.01100650893,1,-150000000000,-1530000000,-665000000,155658.5539,-7401026.121,222303.2003,0.5731916597,0.03664358571,0.8186015935
38,0.577147397,0.8165579136,-0.0115782296,1,-150000000000,-1530000000,-665000000,159863.5808,-7400753.662,228308.5942,0.5731705584,0.03763349124,0.8185714577
39,0.5771378601,0.8165573363,-0.01208331796,1,-150000000000,-1540000000,-665000000,164068.4508,-7400473.941,234313.7641,0.5731488946,0.03862335984,0.8185405187
40,0.5771256399,0.8165573133,-0.01265501758,1,-150000000000,-1540000000,-665000000,168273.1598,-7400186.957,240318.7041,0.5731266684,0.03961319054,0.8185087765
41,0.5771128535,0.8165572902,-0.0132267048,1,-150000000000,-1540000000,-665000000,172477.7037,-7399892.712,246323.4082,0.5731038799,0.04060298238,0.818476231
42,0.5770995008,0.8165572671,-0.01379837906,1,-150000000000,-1540000000,-665000000,176682.0784,-7399591.206,252327.8707,0.573080529,0.04159273436,0.8184428824
43,0.5770855817,0.8165572441,-0.01437003979,1,-150000000000,-1540000000,-665000000,180886.2797,-7399282.439,258332.0855,0.5730566156,0.04258244554,0.8184087308
44,0.5770710964,0.816557221,-0.01494168644,1,-150000000000,-1540000000,-665000000,185090.3035,-7398966.412,264336.0469,0.5730321401,0.04357211493,0.818373776
45,0.5770560448,0.816557198,-0.01551331845,1,-150000000000,-1540000000,-665000000,189294.1457,-7398643.123,270339.7489,0.5730071022,0.04456174156,0.8183380182
46,0.5770404269,0.8165571749,-0.01608493524,1,-150000000000,-1540000000,-665000000,193497.8021,-7398312.575,276343.1856,0.572981502,0.04555132447,0.8183014574
47,0.5770242428,0.8165571519,-0.01665653626,1,-150000000000,-1540000000,-665000000,197701.2686,-7397974.767,282346.3511,0.5729553396,0.04654086268,0.8182640937
48,0.5770074926,0.8165571288,-0.01722812097,1,-150000000000,-1540000000,-665000000,201904.5412,-7397629.7,288349.2396,0.572928615,0.04753035521,0.8182259269
49,0.5769901762,0.8165571057,-0.01779968878,1,-150000000000,-1540000000,-665000000,206107.6156,-7397277.374,294351.8451,0.5729013282,0.04851980112,0.8181869573
50,0.5769722935,0.8165570827,-0.01837123914,1,-150000000000,-1540000000,-665000000,210310.4878,-7396917.789,300354.1618,0.5728734791,0.04950919941,0.8181471849
51,0.5769538447,0.8165570597,-0.01894277149,1,-150000000000,-1540000000,-665000000,214513.1536,-7396550.946,306356.1838,0.572845068,0.05049854911,0.8181066096
52,0.5769348298,0.8165570366,-0.01951428528,1,-150000000000,-1540000000,-665000000,218715.609,-7396176.845,312357.9051,0.5728160948,0.05148784927,0.8180652315
53,0.5769152487,0.8165570136,-0.02008577992,1,-150000000000,-1540000000,-665000000,222917.8497,-7395795.486,318359.32,0.5727865594,0.0524770989,0.8180230507
54,0.5768951015,0.8165569905,-0.02065725487,1,-150000000000,-1540000000,-665000000,227119.8716,-7395406.87,324360.4224,0.5727564621,0.05346629705,0.8179800671
55,0.5768743882,0.8165569675,-0.02122870957,1,-150000000000,-1540000000,-665000000,231321.6707,-7395010.997,330361.2066,0.5727258026,0.05445544272,0.817936281
56,0.5768531089,0.8165569444,-0.02180014345,1,-150000000000,-1540000000,-665000000,235523.2428,-7394607.867,336361.6666,0.5726945812,0.05544453495,0.8178916922
57,0.5768312635,0.8165569214,-0.02237155596,1,-150000000000,-1540000000,-665000000,239724.5838,-7394197.482,342361.7965,0.5726627978,0.05643357279,0.8178463009
58,0.5768088521,0.8165568984,-0.02294294654,1,-150000000000,-1540000000,-665000000,243925.6896,-7393779.84,348361.5905,0.5726304525,0.05742255524,0.817800107
59,0.5767858746,0.8165568754,-0.02351431462,1,-150000000000,-1540000000,-665000000,248126.556,-7393354.944,354361.0427,0.5725975452,0.05841148135,0.8177531107
60,0.5767623313,0.8165568523,-0.02408565963,1,-150000000000,-1540000000,-665000000,252327.1789,-7392922.793,360360.1471,0.5725640761,0.05940035015,0.8177053119
61,0.576738222,0.8165568292,-0.02465698104,1,-150000000000,-1540000000,-665000000,256527.5543,-7392483.387,366358.8979,0.5725300452,0.06038916064,0.8176567107
62,0.5767135467,0.8165568062,-0.02522827826,1,-150000000000,-1540000000,-665000000,260727.6779,-7392036.727,372357.2892,0.5724954525,0.06137791189,0.8176073072
63,0.5766883055,0.8165567832,-0.02579955073,1,-150000000000,-1540000000,-665000000,264927.5456,-7391582.814,378355.3152,0.572460298,0.06236660291,0.8175571014
64,0.5766624985,0.8165567601,-0.02637079792,1,-150000000000,-1540000000,-665000000,269127.1534,-7391121.648,384352.9698,0.5724245818,0.06335523273,0.8175060934
65,0.5766361255,0.8165567371,-0.02694201925,1,-150000000000,-1540000000,-665000000,273326.4972,-7390653.229,390350.2474,0.5723883038,0.06434380039,0.8174542832
66,0.5766091868,0.8165567141,-0.02751321415,1,-150000000000,-1540000000,-665000000,277525.5727,-7390177.557,396347.1418,0.5723514642,0.0653323049,0.8174016708
67,0.5765816822,0.816556691,-0.02808438208,1,-150000000000,-1540000000,-665000000,281724.3759,-7389694.634,402343.6474,0.572314063,0.0663207453,0.8173482563
68,0.5765536119,0.816556668,-0.02865552245,1,-150000000000,-1540000000,-665000000,285922.9026,-7389204.46,408339.7582,0.5722761002,0.06730912064,0.8172940398
69,0.5765249758,0.8165566449,-0.02922663473,1,-150000000000,-1540000000,-665000000,290121.1488,-7388707.035,414335.4682,0.5722375758,0.06829742991,0.8172390213
70,0.576495774,0.8165566219,-0.02979771834,1,-150000000000,-1540000000,-665000000,294319.1103,-7388202.36,420330.7717,0.5721984899,0.06928567218,0.8171832009
71,0.5764660064,0.8165565989,-0.03036877272,1,-150000000000,-1540000000,-665000000,298516.7829,-7387690.435,426325.6628,0.5721588424,0.07027384645,0.8171265787
72,0.5764356733,0.8165565759,-0.03093979733,1,-150000000000,-1540000000,-665000000,302714.1627,-7387171.261,432320.1355,0.5721186337,0.07126195175,0.8170691545
73,0.5764047746,0.8165565528,-0.03151079159,1,-150000000000,-1540000000,-665000000,306911.2454,-7386644.838,438314.1839,0.5720778635,0.07224998714,0.8170109286
74,0.5763733102,0.8165565298,-0.03208175496,1,-150000000000,-1540000000,-665000000,311108.027,-7386111.166,444307.8023,0.5720365319,0.07323795165,0.8169519011
75,0.5763412802,0.8165565068,-0.03265268684,1,-150000000000,-1540000000,-665000000,315304.5032,-7385570.247,450300.9847,0.571994639,0.07422584426,0.8168920718
76,0.5763086846,0.8165564838,-0.03322358671,1,-150000000000,-1540000000,-665000000,319500.6701,-7385022.081,456293.7252,0.5719521847,0.07521366406,0.8168314411
77,0.5762755237,0.8165564607,-0.033794454,1,-150000000000,-1540000000,-665000000,323696.5235,-7384466.668,462286.018,0.5719091694,0.07620141005,0.8167700087
78,0.5762417971,0.8165564377,-0.03436528814,1,-150000000000,-1540000000,-665000000,327892.0592,-7383904.009,468277.8572,0.5718655927,0.07718908126,0.8167077749
79,0.5762075052,0.8165564147,-0.03493608858,1,-150000000000,-1540000000,-665000000,332087.2732,-7383334.104,474269.2368,0.571821455,0.07817667673,0.8166447396
80,0.5761726478,0.8165563917,-0.03550685475,1,-150000000000,-1540000000,-665000000,336282.1613,-7382756.954,480260.1511,0.5717767561,0.07916419548,0.8165809031
81,0.5761372251,0.8165563687,-0.03607758609,1,-150000000000,-1540000000,-665000000,340476.7194,-7382172.56,486250.5941,0.5717314962,0.08015163656,0.8165162653
82,0.576101237,0.8165563457,-0.03664828206,1,-150000000000,-1540000000,-665000000,344670.9435,-7381580.922,492240.56,0.5716856752,0.08113899899,0.8164508262
83,0.5760646836,0.8165563227,-0.03721894207,1,-150000000000,-1540000000,-665000000,348864.8293,-7380982.041,498230.0428,0.5716392932,0.08212628181,0.816384586
84,0.576027565,0.8165562997,-0.03778956558,1,-150000000000,-1540000000,-665000000,353058.3728,-7380375.917,504219.0367,0.5715923504,0.08311348402,0.8163175447
85,0.575989881,0.8165562767,-0.03836015201,1,-150000000000,-1540000000,-665000000,357251.5698,-7379762.551,510207.5359,0.5715448466,0.08410060468,0.8162497024
86,0.5759570558,0.8165524059,-0.03893116432,1,-150000000000,-1540000000,-666000000,361444.4163,-7379141.943,516195.5344,0.571496782,0.08508764282,0.8161810591
87,0.5759182411,0.8165523829,-0.03950168032,1,-150000000000,-1540000000,-666000000,365636.9081,-7378514.095,522183.0264,0.5714481567,0.08607459746,0.8161116149
88,0.5758788613,0.8165523599,-0.04007215759,1,-150000000000,-1540000000,-666000000,369829.0412,-7377879.006,528170.006,0.5713989705,0.08706146765,0.8160413699
89,0.5758389164,0.8165523369,-0.04064259555,1,-150000000000,-1540000000,-666000000,374020.8113,-7377236.677,534156.4674,0.5713492237,0.0880482524,0.8159703241
90,0.5757984065,0.8165523138,-0.04121299364,1,-150000000000,-1540000000,-666000000,378212.2144,-7376587.11,540142.4045,0.5712989163,0.08903495076,0.8158984776
91,0.5757573315,0.8165522908,-0.04178335131,1,-150000000000,-1540000000,-666000000,382403.2464,-7375930.304,546127.8117,0.5712480482,0.09002156175,0.8158258306
92,0.5757156915,0.8165522679,-0.04235366799,1,-150000000000,-1540000000,-666000000,386593.9031,-7375266.26,552112.683,0.5711966196,0.09100808438,0.815752383
93,0.5756734866,0.8165522449,-0.04292394312,1,-150000000000,-1540000000,-666000000,390784.1805,-7374594.98,558097.0124,0.5711446304,0.09199451775,0.815678135
94,0.5756307169,0.8165522219,-0.04349417617,1,-150000000000,-1540000000,-666000000,394974.0745,-7373916.462,564080.7943,0.5710920809,0.09298086082,0.8156030865
95,0.5755873823,0.8165521989,-0.04406436654,1,-150000000000,-1540000000,-666000000,399163.5808,-7373230.709,570064.0226,0.571038971,0.09396711266,0.8155272377
96,0.5755434829,0.8165521759,-0.04463451369,1,-150000000000,-1540000000,-666000000,403352.6955,-7372537.721,576046.6916,0.5709853007,0.0949532723,0.8154505886
97,0.5754990188,0.8165521529,-0.04520461706,1,-150000000000,-1540000000,-666000000,407541.4144,-7371837.499,582028.7953,0.5709310702,0.09593933875,0.8153731394
98,0.5754539898,0.8165521299,-0.04577467609,1,-150000000000,-1540000000,-666000000,411729.7334,-7371130.043,588010.3278,0.5708762792,0.09692531106,0.8152948901
99,0.5754083963,0.816552107,-0.04634469021,1,-150000000000,-1540000000,-666000000,415917.6483,-7370415.354,593991.2834,0.5708209282,0.09791118827,0.8152158408
100,0.5753622382,0.8165520839,-0.04691465889,1,-150000000000,-1540000000,-666000000,420105.1552,-7369693.432,599971.6561,0.5707650172,0.0988969694,0.8151359915
101,0.5753155154,0.816552061,-0.04748458154,1,-150000000000,-1540000000,-666000000,424292.2498,-7368964.279,605951.4401,0.570708546,0.09988265347,0.8150553424
102,0.5752682282,0.816552038,-0.0480544576,1,-150000000000,-1540000000,-666000000,428478.928,-7368227.895,611930.6295,0.5706515148,0.1008682396,0.8149738934
103,0.5752203764,0.816552015,-0.04862428654,1,-150000000000,-1540000000,-666000000,432665.1858,-7367484.28,617909.2184,0.5705939236,0.1018537267,0.8148916448
104,0.5751719603,0.816551992,-0.04919406778,1,-150000000000,-1540000000,-666000000,436851.0191,-7366733.437,623887.201,0.5705357726,0.1028391138,0.8148085965
105,0.5751229796,0.816551969,-0.04976380075,1,-150000000000,-1540000000,-666000000,441036.4236,-7365975.364,629864.5714,0.5704770616,0.1038244,0.8147247487
106,0.5750734346,0.8165519461,-0.05033348492,1,-150000000000,-1540000000,-666000000,445221.3954,-7365210.064,635841.3237,0.5704177908,0.1048095844,0.8146401015
107,0.5750233255,0.8165519231,-0.05090311972,1,-150000000000,-1540000000,-666000000,449405.9304,-7364437.536,641817.4521,0.5703579605,0.1057946659,0.8145546547
108,0.574972652,0.8165519001,-0.05147270457,1,-150000000000,-1540000000,-666000000,453590.0243,-7363657.782,647792.9507,0.5702975704,0.1067796436,0.8144684088
109,0.5749214143,0.8165518771,-0.05204223894,1,-150000000000,-1540000000,-666000000,457773.6731,-7362870.802,653767.8136,0.5702366207,0.1077645165,0.8143813636
110,0.5748696125,0.8165518542,-0.05261172226,1,-150000000000,-1540000000,-666000000,461956.8728,-7362076.597,659742.035,0.5701751114,0.1087492837,0.8142935193
111,0.5748172465,0.8165518312,-0.05318115396,1,-150000000000,-1540000000,-666000000,466139.6191,-7361275.168,665715.609,0.5701130426,0.1097339441,0.8142048761
112,0.5747643166,0.8165518083,-0.05375053351,1,-150000000000,-1540000000,-666000000,470321.9081,-7360466.516,671688.5298,0.5700504144,0.110718497,0.8141154338
113,0.5747108227,0.8165517853,-0.05431986032,1,-150000000000,-1540000000,-666000000,474503.7355,-7359650.641,677660.7915,0.5699872268,0.1117029411,0.8140251926
114,0.5746567647,0.8165517624,-0.05488913384,1,-150000000000,-1540000000,-666000000,478685.0973,-7358827.545,683632.3882,0.5699234799,0.1126872756,0.8139341527
115,0.574602143,0.8165517394,-0.05545835353,1,-150000000000,-1540000000,-666000000,482865.9894,-7357997.227,689603.3141,0.5698591738,0.1136714996,0.8138423141
116,0.5745469573,0.8165517164,-0.05602751881,1,-150000000000,-1540000000,-666000000,487046.4077,-7357159.689,695573.5633,0.5697943085,0.114655612,0.8137496769
117,0.5744912079,0.8165516935,-0.05659662912,1,-150000000000,-1540000000,-666000000,491226.348,-7356314.932,701543.13,0.569728884,0.1156396119,0.8136562412
118,0.5744348948,0.8165516706,-0.05716568394,1,-150000000000,-1540000000,-666000000,495405.8064,-7355462.956,707512.0083,0.5696629005,0.1166234983,0.8135620071
119,0.574378018,0.8165516476,-0.05773468266,1,-150000000000,-1540000000,-666000000,499584.7786,-7354603.763,713480.1923,0.569596358,0.1176072703,0.8134669747
120,0.5743205776,0.8165516247,-0.05830362473,1,-150000000000,-1540000000,-666000000,503763.2605,-7353737.353,719447.6762,0.5695292566,0.1185909269,0.813371144
121,0.5742625737,0.8165516017,-0.05887250963,1,-150000000000,-1540000000,-666000000,507941.2482,-7352863.727,725414.4541,0.5694615964,0.1195744671,0.8132745152
122,0.5742040062,0.8165515788,-0.05944133676,1,-150000000000,-1540000000,-666000000,512118.7374,-7351982.886,731380.5202,0.5693933772,0.12055789,0.8131770884
